Time (s),X (m),Y (m),Yaw (deg)
2.327,0.0,0.0,0.0
2.372,0.0,0.0,0.0
2.422,0.0,0.0,0.0
2.472,0.0,0.0,0.0
2.522,0.0,0.0,0.0
2.572,0.0,0.0,0.0
2.623,0.0,0.0,0.0
2.672,0.0,0.0,0.0
2.731,0.0,0.0,0.0
2.772,0.0,0.0,0.0
2.822,0.0,0.0,0.0
2.877,0.0,0.0,0.0
2.922,0.0,0.0,0.0
2.972,0.0,-0.0,-0.02
3.022,0.0,0.0,0.0
3.072,0.0,0.0,0.0
3.122,0.0,-0.0,-0.02
3.172,0.0001,-0.0,-0.04
3.222,0.0001,-0.0,-0.07
3.279,0.0003,-0.0,-0.15
3.322,0.0007,-0.0,-0.16
3.372,0.0012,-0.0,-0.13
3.422,0.0017,-0.0,-0.09
3.473,0.0024,-0.0,-0.05
3.522,0.0027,-0.0,-0.07
3.578,0.003,-0.0,-0.05
3.622,0.0036,-0.0,-0.05
3.672,0.0041,-0.0,-0.02
3.722,0.0047,-0.0,-0.05
3.772,0.005,-0.0,-0.07
3.822,0.0053,-0.0,-0.07
3.873,0.0057,-0.0,-0.05
3.922,0.0062,-0.0,0.0
3.98,0.0067,-0.0,0.04
4.022,0.0074,-0.0,0.04
4.072,0.0078,-0.0,0.04
4.122,0.0082,-0.0,0.0
4.172,0.0087,-0.0,0.05
4.222,0.0092,-0.0,0.07
4.272,0.0098,-0.0,0.07
4.322,0.0108,-0.0,0.04
4.372,0.0116,-0.0,0.05
4.422,0.0125,-0.0,0.07
4.472,0.0137,-0.0,0.07
4.522,0.0145,-0.0,0.07
4.572,0.0154,0.0,0.09
4.622,0.0165,0.0,0.09
4.672,0.0174,0.0,0.11
4.722,0.0183,0.0,0.11
4.772,0.0195,0.0,0.15
4.822,0.0204,0.0,0.15
4.872,0.0212,0.0,0.11
4.922,0.0225,0.0,0.16
4.972,0.0233,0.0,0.18
5.022,0.0242,0.0,0.18
5.072,0.0255,0.0,0.22
5.122,0.0264,0.0,0.24
5.172,0.0272,0.0,0.22
5.222,0.0285,0.0,0.18
5.272,0.0295,0.0,0.15
5.322,0.0304,0.0,0.16
5.372,0.0321,0.0,0.15
5.422,0.0333,0.0,0.16
5.472,0.0347,0.0001,0.18
5.522,0.0365,0.0001,0.18
5.572,0.0378,0.0001,0.13
5.622,0.0396,0.0001,0.15
5.672,0.041,0.0001,0.11
5.722,0.0422,0.0001,0.07
5.772,0.0444,0.0001,0.02
5.822,0.0461,0.0001,-0.0
5.872,0.0492,0.0001,0.04
5.922,0.0515,0.0001,-0.02
5.972,0.054,0.0001,-0.04
6.022,0.0578,0.0001,-0.07
6.072,0.0608,0.0001,-0.13
6.122,0.0637,0.0001,-0.15
6.172,0.0687,0.0,-0.18
6.222,0.072,0.0,-0.22
6.272,0.0753,0.0,-0.22
6.322,0.0806,0.0,-0.2
6.372,0.0842,-0.0,-0.2
6.422,0.0879,-0.0,-0.18
6.472,0.0936,-0.0,-0.15
6.522,0.0976,-0.0,-0.15
6.572,0.104,-0.0001,-0.04
6.622,0.1082,-0.0001,-0.05
6.672,0.1122,-0.0001,0.02
6.722,0.1186,-0.0001,0.05
6.772,0.1226,-0.0001,0.04
6.822,0.1268,-0.0001,0.07
6.872,0.133,-0.0,0.05
6.922,0.137,-0.0,0.02
6.976,0.1434,-0.0,0.04
7.022,0.1475,-0.0,0.05
7.072,0.1517,-0.0,0.07
7.122,0.1583,-0.0,0.02
7.172,0.1625,-0.0,-0.02
7.222,0.1669,-0.0,-0.04
7.272,0.1733,-0.0,-0.15
7.322,0.1776,-0.0001,-0.22
7.372,0.1839,-0.0001,-0.22
7.422,0.1882,-0.0001,-0.34
7.472,0.1924,-0.0001,-0.34
7.522,0.1967,-0.0001,-0.33
7.572,0.2028,-0.0002,-0.27
7.622,0.207,-0.0002,-0.18
7.677,0.2132,-0.0002,-0.09
7.722,0.2174,-0.0002,-0.05
7.772,0.2215,-0.0002,0.05
7.822,0.2277,-0.0002,0.13
7.872,0.2318,-0.0002,0.15
7.922,0.2383,-0.0002,0.15
7.972,0.2425,-0.0002,0.2
8.022,0.2469,-0.0002,0.11
8.079,0.2512,-0.0001,0.09
8.122,0.2576,-0.0001,0.04
8.172,0.2617,-0.0001,0.0
8.222,0.2681,-0.0001,-0.09
8.272,0.2724,-0.0002,-0.07
8.322,0.2767,-0.0002,-0.07
8.378,0.2831,-0.0002,-0.18
8.422,0.2875,-0.0002,-0.16
8.472,0.2919,-0.0002,-0.16
8.522,0.2962,-0.0002,-0.18
8.572,0.3027,-0.0002,-0.16
8.622,0.3069,-0.0002,-0.13
8.679,0.3112,-0.0002,-0.09
8.722,0.3175,-0.0003,-0.11
8.772,0.3217,-0.0003,-0.05
8.822,0.3259,-0.0003,-0.02
8.872,0.3323,-0.0003,0.02
8.922,0.3365,-0.0003,0.02
8.98,0.3407,-0.0003,0.11
9.022,0.3471,-0.0003,0.09
9.072,0.3513,-0.0002,0.07
9.122,0.3557,-0.0002,0.11
9.172,0.3622,-0.0002,0.05
9.222,0.3666,-0.0002,-0.02
9.279,0.371,-0.0002,-0.02
9.322,0.3775,-0.0002,-0.16
9.372,0.3816,-0.0003,-0.22
9.422,0.388,-0.0003,-0.34
9.473,0.3921,-0.0003,-0.34
9.522,0.3963,-0.0003,-0.38
9.573,0.4025,-0.0004,-0.29
9.622,0.4067,-0.0004,-0.24
9.68,0.4109,-0.0004,-0.22
9.722,0.4173,-0.0004,-0.09
9.774,0.4217,-0.0004,-0.07
9.822,0.4259,-0.0004,0.04
9.874,0.4324,-0.0004,0.09
9.922,0.4366,-0.0004,0.11
9.982,0.4409,-0.0004,0.11
10.022,0.4472,-0.0004,0.04
10.072,0.4512,-0.0004,0.09
10.122,0.4555,-0.0004,0.04
10.172,0.4618,-0.0004,0.05
10.222,0.4662,-0.0004,0.02
10.272,0.4705,-0.0004,0.05
10.322,0.4768,-0.0004,-0.04
10.372,0.4812,-0.0004,-0.05
10.422,0.4876,-0.0004,-0.11
10.472,0.4919,-0.0004,-0.11
10.522,0.4963,-0.0004,-0.16
10.572,0.5027,-0.0004,-0.18
10.622,0.507,-0.0004,-0.16
10.672,0.5112,-0.0005,-0.18
10.722,0.5176,-0.0005,-0.18
10.772,0.5215,-0.0005,-0.16
10.822,0.5255,-0.0005,-0.09
10.872,0.5318,-0.0005,0.02
10.922,0.5358,-0.0005,0.07
10.972,0.54,-0.0005,0.11
11.022,0.5466,-0.0005,0.18
11.072,0.5507,-0.0005,0.13
11.122,0.5571,-0.0004,0.16
11.172,0.5615,-0.0004,0.11
11.222,0.5656,-0.0004,0.05
11.272,0.572,-0.0004,-0.02
11.322,0.5764,-0.0004,-0.13
11.372,0.5807,-0.0004,-0.18
11.422,0.5872,-0.0005,-0.25
11.472,0.5914,-0.0005,-0.24
11.522,0.5957,-0.0005,-0.29
11.572,0.6022,-0.0005,-0.27
11.622,0.6062,-0.0006,-0.29
11.672,0.6106,-0.0006,-0.18
11.722,0.6171,-0.0006,-0.2
11.772,0.6213,-0.0006,-0.09
11.822,0.6257,-0.0006,-0.07
11.872,0.632,-0.0006,-0.04
11.922,0.6362,-0.0006,0.05
11.972,0.6404,-0.0006,0.04
12.022,0.6467,-0.0006,0.04
12.072,0.6509,-0.0006,0.05
12.122,0.6551,-0.0006,0.04
12.172,0.6615,-0.0006,0.09
12.222,0.6658,-0.0006,0.13
12.272,0.6701,-0.0006,0.15
12.322,0.6767,-0.0006,0.05
12.372,0.6812,-0.0006,0.0
12.422,0.6855,-0.0006,0.02
12.472,0.6921,-0.0006,-0.04
12.522,0.6961,-0.0006,-0.11
12.572,0.7005,-0.0006,-0.2
12.622,0.7069,-0.0006,-0.24
12.672,0.7109,-0.0006,-0.29
12.722,0.7151,-0.0006,-0.22
12.772,0.7214,-0.0007,-0.2
12.822,0.7256,-0.0007,-0.13
12.872,0.7299,-0.0007,-0.11
12.922,0.7362,-0.0007,0.02
12.972,0.7406,-0.0007,0.09
13.022,0.7449,-0.0007,0.09
13.072,0.7512,-0.0007,0.13
13.122,0.7556,-0.0007,0.2
13.172,0.7599,-0.0006,0.13
13.222,0.7663,-0.0006,0.09
13.272,0.7707,-0.0006,0.0
13.322,0.7748,-0.0006,-0.02
13.372,0.7813,-0.0006,-0.09
13.422,0.7856,-0.0006,-0.07
13.472,0.7899,-0.0007,-0.11
13.522,0.7965,-0.0007,-0.15
13.572,0.8009,-0.0007,-0.25
13.622,0.8053,-0.0007,-0.24
13.672,0.8115,-0.0007,-0.24
13.722,0.8159,-0.0007,-0.22
13.772,0.82,-0.0008,-0.22
13.822,0.8261,-0.0008,-0.16
13.872,0.8301,-0.0008,-0.13
13.922,0.8362,-0.0008,-0.13
13.972,0.8403,-0.0008,-0.11
14.022,0.8445,-0.0008,-0.05
14.072,0.8508,-0.0008,0.05
14.122,0.8547,-0.0008,0.11
14.172,0.859,-0.0008,0.11
14.222,0.8655,-0.0008,0.16
14.272,0.8696,-0.0008,0.16
14.322,0.876,-0.0008,0.13
14.372,0.8801,-0.0008,0.09
14.422,0.8843,-0.0007,0.05
14.472,0.8908,-0.0007,-0.02
14.522,0.895,-0.0008,-0.11
14.572,0.8994,-0.0008,-0.13
14.622,0.9057,-0.0008,-0.25
14.672,0.9097,-0.0008,-0.27
14.722,0.9141,-0.0008,-0.25
14.772,0.9204,-0.0008,-0.2
14.822,0.9246,-0.0009,-0.18
14.872,0.9289,-0.0009,-0.15
14.922,0.9354,-0.0009,-0.09
14.972,0.9397,-0.0009,-0.02
15.022,0.9439,-0.0009,0.04
15.072,0.9504,-0.0009,0.09
15.122,0.9546,-0.0009,0.11
15.172,0.9589,-0.0009,0.07
15.222,0.9652,-0.0009,0.02
15.272,0.9694,-0.0009,0.04
15.322,0.9737,-0.0009,0.0
15.372,0.9801,-0.0009,0.02
15.422,0.9844,-0.0009,-0.0
15.472,0.9888,-0.0009,-0.05
15.522,0.9954,-0.0009,-0.11
15.572,0.9997,-0.0009,-0.13
15.622,1.0042,-0.0009,-0.15
15.672,1.0108,-0.0009,-0.22
15.722,1.0151,-0.0009,-0.25
15.772,1.0194,-0.0009,-0.27
15.822,1.0258,-0.001,-0.25
15.872,1.03,-0.001,-0.31
15.922,1.0341,-0.001,-0.27
15.972,1.0404,-0.001,-0.18
16.022,1.0446,-0.0011,-0.15
16.072,1.0488,-0.0011,-0.04
16.122,1.0551,-0.0011,0.11
16.172,1.0594,-0.001,0.09
16.222,1.0637,-0.001,0.15
16.272,1.0699,-0.001,0.15
16.322,1.0743,-0.001,0.16
16.372,1.0784,-0.001,0.15
16.422,1.0848,-0.001,0.13
16.472,1.0892,-0.001,0.0
16.522,1.0933,-0.001,0.0
16.572,1.0997,-0.001,-0.11
16.622,1.104,-0.001,-0.15
16.672,1.1083,-0.001,-0.2
16.722,1.1145,-0.001,-0.2
16.772,1.1188,-0.001,-0.22
16.822,1.1253,-0.0011,-0.2
16.872,1.1294,-0.0011,-0.16
16.922,1.1337,-0.0011,-0.15
16.972,1.1399,-0.0011,-0.11
17.022,1.1441,-0.0011,-0.07
17.072,1.1482,-0.0011,-0.04
17.122,1.1545,-0.0011,0.02
17.172,1.1588,-0.0011,-0.04
17.222,1.1629,-0.0011,0.0
17.272,1.1691,-0.0011,0.05
17.322,1.1733,-0.0011,0.02
17.372,1.1776,-0.0011,0.11
17.422,1.1839,-0.0011,0.05
17.472,1.1882,-0.0011,0.04
17.522,1.1948,-0.0011,0.0
17.572,1.199,-0.0011,-0.05
17.622,1.2034,-0.0011,-0.07
17.672,1.21,-0.0011,-0.2
17.722,1.2141,-0.0011,-0.24
17.772,1.2184,-0.0012,-0.31
17.822,1.2248,-0.0012,-0.38
17.872,1.2288,-0.0012,-0.34
17.922,1.2331,-0.0012,-0.31
17.972,1.2393,-0.0013,-0.24
18.022,1.2434,-0.0013,-0.16
18.072,1.2495,-0.0013,-0.09
18.122,1.2537,-0.0013,-0.05
18.172,1.258,-0.0013,0.04
18.222,1.2642,-0.0013,0.11
18.272,1.2685,-0.0013,0.11
18.322,1.2728,-0.0013,0.15
18.372,1.2791,-0.0013,0.15
18.422,1.2832,-0.0013,0.09
18.472,1.2875,-0.0013,0.05
18.522,1.2937,-0.0012,0.05
18.572,1.2979,-0.0012,-0.04
18.622,1.3043,-0.0013,-0.05
18.672,1.3087,-0.0013,-0.09
18.722,1.313,-0.0013,-0.09
18.772,1.3196,-0.0013,-0.13
18.822,1.324,-0.0013,-0.18
18.872,1.3283,-0.0013,-0.18
18.922,1.3326,-0.0013,-0.2
18.972,1.3391,-0.0013,-0.18
19.022,1.3433,-0.0013,-0.15
19.072,1.3476,-0.0014,-0.16
19.122,1.3538,-0.0014,-0.16
19.172,1.358,-0.0014,-0.07
19.222,1.3622,-0.0014,-0.04
19.272,1.3685,-0.0014,0.04
19.322,1.3728,-0.0014,0.05
19.372,1.3789,-0.0014,0.13
19.422,1.3833,-0.0014,0.11
19.472,1.3877,-0.0014,0.11
19.522,1.3942,-0.0014,0.07
19.572,1.3986,-0.0013,0.02
19.622,1.403,-0.0013,-0.05
19.672,1.4073,-0.0014,-0.07
19.722,1.4138,-0.0014,-0.2
19.772,1.4182,-0.0014,-0.29
19.822,1.4224,-0.0014,-0.31
19.872,1.4288,-0.0014,-0.34
19.922,1.4328,-0.0015,-0.33
19.972,1.4393,-0.0015,-0.25
20.022,1.4436,-0.0015,-0.2
20.072,1.4476,-0.0015,-0.22
20.122,1.4541,-0.0016,-0.09
20.172,1.4583,-0.0016,-0.05
20.222,1.4626,-0.0016,0.0
20.272,1.4687,-0.0016,0.09
20.322,1.4729,-0.0015,0.04
20.372,1.4772,-0.0015,0.05
20.422,1.4835,-0.0015,0.02
20.472,1.4876,-0.0015,0.07
20.522,1.4919,-0.0015,0.04
20.572,1.4979,-0.0015,0.05
20.622,1.5023,-0.0015,0.04
20.672,1.5066,-0.0015,0.04
20.722,1.5133,-0.0015,0.0
20.772,1.5175,-0.0015,-0.04
20.822,1.524,-0.0015,-0.13
20.872,1.5284,-0.0015,-0.15
20.922,1.5327,-0.0016,-0.18
20.972,1.537,-0.0016,-0.22
21.022,1.5433,-0.0016,-0.27
21.072,1.5476,-0.0016,-0.27
21.122,1.5517,-0.0016,-0.24
21.172,1.558,-0.0017,-0.16
21.222,1.5622,-0.0017,-0.09
21.272,1.5665,-0.0017,-0.04
21.322,1.5729,-0.0017,0.05
21.372,1.5772,-0.0017,0.09
21.422,1.5816,-0.0017,0.11
21.472,1.588,-0.0016,0.09
21.522,1.5923,-0.0016,0.15
21.572,1.5966,-0.0016,0.07
21.622,1.603,-0.0016,-0.0
21.672,1.6074,-0.0016,-0.04
21.722,1.6117,-0.0016,-0.13
21.772,1.6181,-0.0016,-0.18
21.822,1.6224,-0.0017,-0.24
21.872,1.6267,-0.0017,-0.25
21.923,1.6332,-0.0017,-0.25
21.972,1.6377,-0.0017,-0.27
22.022,1.6419,-0.0018,-0.29
22.072,1.6485,-0.0018,-0.22
22.122,1.6527,-0.0018,-0.25
22.172,1.657,-0.0018,-0.16
22.224,1.6634,-0.0018,-0.09
22.272,1.6675,-0.0018,-0.15
22.322,1.6717,-0.0018,-0.07
22.372,1.678,-0.0019,-0.02
22.422,1.6822,-0.0019,0.02
22.472,1.6864,-0.0018,0.05
22.525,1.6927,-0.0018,0.09
22.572,1.697,-0.0018,0.11
22.622,1.7014,-0.0018,0.13
22.672,1.7079,-0.0018,0.13
22.722,1.7124,-0.0018,0.07
22.772,1.7167,-0.0018,0.02
22.826,1.7232,-0.0018,-0.05
22.872,1.7276,-0.0018,-0.07
22.922,1.7319,-0.0018,-0.18
22.972,1.738,-0.0018,-0.29
23.022,1.7424,-0.0019,-0.31
23.072,1.7463,-0.0019,-0.31
23.122,1.7526,-0.0019,-0.24
23.172,1.7569,-0.0019,-0.22
23.222,1.7609,-0.0019,-0.15
23.272,1.7674,-0.002,-0.07
23.322,1.7716,-0.002,0.02
23.372,1.776,-0.002,0.09
23.422,1.7824,-0.0019,0.04
23.472,1.7866,-0.0019,0.11
23.522,1.7909,-0.0019,0.11
23.572,1.7973,-0.0019,0.07
23.622,1.8016,-0.0019,0.07
23.672,1.8058,-0.0019,0.02
23.722,1.8122,-0.0019,-0.02
23.772,1.8165,-0.0019,-0.11
23.822,1.8208,-0.0019,-0.11
23.872,1.8274,-0.0019,-0.11
23.922,1.8318,-0.002,-0.22
23.972,1.8361,-0.002,-0.25
24.024,1.8427,-0.002,-0.25
24.072,1.8471,-0.002,-0.29
24.122,1.8514,-0.002,-0.25
24.172,1.8578,-0.0021,-0.24
24.222,1.862,-0.0021,-0.24
24.272,1.8662,-0.0021,-0.2
24.325,1.8725,-0.0021,-0.15
24.372,1.8767,-0.0021,-0.13
24.422,1.8808,-0.0021,-0.04
24.472,1.8871,-0.0021,0.05
24.522,1.8913,-0.0021,0.11
24.572,1.8957,-0.0021,0.13
24.626,1.9021,-0.0021,0.16
24.672,1.9065,-0.0021,0.16
24.722,1.9109,-0.0021,0.09
24.772,1.9175,-0.0021,0.05
24.822,1.9217,-0.0021,0.04
24.872,1.926,-0.0021,-0.07
24.927,1.9324,-0.0021,-0.18
24.972,1.9368,-0.0021,-0.2
25.032,1.941,-0.0021,-0.25
25.072,1.9472,-0.0021,-0.27
25.125,1.9514,-0.0022,-0.25
25.172,1.9557,-0.0022,-0.22
25.225,1.9622,-0.0022,-0.16
25.272,1.9664,-0.0022,-0.15
25.332,1.9708,-0.0022,-0.07
25.372,1.9771,-0.0022,-0.05
25.425,1.9814,-0.0022,0.0
25.472,1.9856,-0.0022,0.04
25.522,1.9919,-0.0022,0.04
25.572,1.9961,-0.0022,-0.02
25.622,2.0004,-0.0022,0.04
25.672,2.0066,-0.0022,0.02
25.722,2.0109,-0.0022,0.02
25.772,2.0152,-0.0022,0.04
25.822,2.0217,-0.0022,0.04
25.872,2.0261,-0.0022,-0.02
25.922,2.0304,-0.0022,-0.07
25.972,2.037,-0.0022,-0.16
26.022,2.0415,-0.0022,-0.18
26.072,2.0455,-0.0023,-0.24
26.122,2.0519,-0.0023,-0.29
26.172,2.0562,-0.0023,-0.34
26.222,2.0604,-0.0023,-0.36
26.272,2.0668,-0.0024,-0.31
26.322,2.0708,-0.0024,-0.27
26.372,2.0751,-0.0024,-0.18
26.422,2.0814,-0.0024,-0.15
26.472,2.0854,-0.0024,-0.04
26.522,2.0916,-0.0024,0.11
26.572,2.0956,-0.0024,0.09
26.622,2.0999,-0.0024,0.15
26.672,2.1064,-0.0024,0.07
26.722,2.1107,-0.0024,0.11
26.772,2.115,-0.0024,0.13
26.822,2.1213,-0.0024,0.07
26.872,2.1257,-0.0024,-0.04
26.922,2.1299,-0.0024,-0.04
26.972,2.1364,-0.0024,-0.11
27.022,2.1406,-0.0024,-0.11
27.072,2.145,-0.0024,-0.16
27.122,2.1515,-0.0024,-0.2
27.172,2.1558,-0.0024,-0.2
27.222,2.1601,-0.0025,-0.2
27.272,2.1667,-0.0025,-0.16
27.322,2.1709,-0.0025,-0.2
27.372,2.1752,-0.0025,-0.16
27.422,2.1815,-0.0025,-0.13
27.472,2.1857,-0.0025,-0.09
27.522,2.19,-0.0025,-0.07
27.572,2.1963,-0.0025,-0.07
27.622,2.2005,-0.0025,0.02
27.672,2.2048,-0.0025,0.07
27.722,2.2111,-0.0025,0.05
27.772,2.2155,-0.0025,0.13
27.822,2.2198,-0.0025,0.07
27.872,2.2263,-0.0025,0.05
27.922,2.2307,-0.0025,-0.0
27.972,2.2352,-0.0025,-0.05
28.022,2.2396,-0.0025,-0.09
28.072,2.246,-0.0025,-0.24
28.122,2.2502,-0.0026,-0.27
28.172,2.2546,-0.0026,-0.36
28.222,2.261,-0.0026,-0.38
28.272,2.2652,-0.0026,-0.36
28.322,2.2695,-0.0027,-0.31
28.372,2.2758,-0.0027,-0.25
28.422,2.2801,-0.0027,-0.15
28.472,2.2844,-0.0027,-0.09
28.522,2.2906,-0.0027,-0.04
28.572,2.2949,-0.0027,0.04
28.622,2.2991,-0.0027,0.09
28.672,2.3055,-0.0027,0.11
28.722,2.3097,-0.0027,0.09
28.772,2.3158,-0.0027,0.07
28.822,2.3201,-0.0027,0.02
28.872,2.3244,-0.0027,0.04
28.922,2.3307,-0.0027,0.04
28.972,2.335,-0.0027,0.04
29.022,2.3394,-0.0027,-0.05
29.072,2.3459,-0.0027,-0.09
29.122,2.3503,-0.0027,-0.05
29.172,2.3546,-0.0027,-0.11
29.222,2.3612,-0.0027,-0.18
29.272,2.3655,-0.0027,-0.2
29.322,2.3698,-0.0028,-0.22
29.372,2.374,-0.0028,-0.2
29.422,2.3804,-0.0028,-0.25
29.472,2.3846,-0.0028,-0.24
29.522,2.3888,-0.0028,-0.18
29.572,2.3951,-0.0028,-0.05
29.622,2.3993,-0.0028,-0.02
29.672,2.4035,-0.0028,0.02
29.722,2.4098,-0.0028,0.07
29.772,2.4141,-0.0028,0.13
29.822,2.4206,-0.0028,0.11
29.872,2.4249,-0.0028,0.09
29.922,2.4291,-0.0028,0.11
29.972,2.4355,-0.0028,-0.0
30.022,2.4398,-0.0028,-0.07
30.072,2.4441,-0.0028,-0.15
30.122,2.4507,-0.0028,-0.22
30.172,2.455,-0.0029,-0.29
30.222,2.4592,-0.0029,-0.31
30.272,2.4656,-0.0029,-0.31
30.322,2.4697,-0.0029,-0.34
30.372,2.4741,-0.003,-0.31
30.422,2.4806,-0.003,-0.22
30.472,2.4848,-0.003,-0.2
30.522,2.4891,-0.003,-0.16
30.572,2.4954,-0.003,-0.09
30.622,2.4997,-0.003,-0.04
30.672,2.5038,-0.003,0.02
30.722,2.5101,-0.003,-0.02
30.772,2.5144,-0.003,-0.0
30.822,2.5186,-0.003,0.02
30.872,2.5249,-0.003,0.07
30.922,2.5291,-0.003,0.09
30.972,2.5334,-0.003,0.07
31.022,2.54,-0.003,0.04
31.072,2.5444,-0.003,0.05
31.122,2.5489,-0.003,0.02
31.172,2.5553,-0.003,-0.05
31.222,2.5597,-0.003,-0.13
31.272,2.564,-0.003,-0.16
31.322,2.5704,-0.003,-0.25
31.372,2.5746,-0.0031,-0.29
31.422,2.5789,-0.0031,-0.29
31.472,2.5852,-0.0031,-0.27
31.522,2.5894,-0.0031,-0.22
31.572,2.5936,-0.0032,-0.15
31.622,2.6001,-0.0032,-0.04
31.672,2.6044,-0.0032,0.0
31.722,2.6087,-0.0032,0.05
31.772,2.6129,-0.0032,0.09
31.822,2.6195,-0.0031,0.13
31.872,2.6237,-0.0031,0.13
31.922,2.628,-0.0031,0.09
31.972,2.6344,-0.0031,-0.0
32.022,2.6387,-0.0031,-0.05
32.072,2.643,-0.0031,-0.07
32.122,2.6495,-0.0031,-0.16
32.172,2.6537,-0.0032,-0.18
32.222,2.6581,-0.0032,-0.18
32.272,2.6646,-0.0032,-0.24
32.322,2.6688,-0.0032,-0.27
32.372,2.6732,-0.0032,-0.27
32.422,2.6796,-0.0033,-0.27
32.472,2.684,-0.0033,-0.25
32.522,2.6883,-0.0033,-0.24
32.572,2.6946,-0.0033,-0.15
32.622,2.6986,-0.0033,-0.15
32.672,2.7048,-0.0033,-0.18
32.722,2.7088,-0.0034,-0.07
32.772,2.713,-0.0034,-0.02
32.822,2.7192,-0.0034,0.05
32.872,2.7234,-0.0034,0.09
32.922,2.7277,-0.0033,0.09
32.972,2.7342,-0.0033,0.16
33.022,2.7386,-0.0033,0.15
33.072,2.743,-0.0033,0.15
33.122,2.7495,-0.0033,0.05
33.172,2.7539,-0.0033,-0.0
33.222,2.7582,-0.0033,-0.04
33.272,2.7647,-0.0033,-0.15
33.322,2.7689,-0.0033,-0.24
33.372,2.7733,-0.0033,-0.27
33.422,2.7796,-0.0034,-0.27
33.472,2.7838,-0.0034,-0.25
33.522,2.7881,-0.0034,-0.22
33.572,2.7945,-0.0034,-0.16
33.622,2.7988,-0.0034,-0.13
33.672,2.8031,-0.0034,-0.07
33.722,2.8092,-0.0034,0.05
33.772,2.8136,-0.0034,0.05
33.822,2.8178,-0.0034,0.07
33.872,2.8242,-0.0034,0.07
33.922,2.8284,-0.0034,0.09
33.972,2.8326,-0.0034,0.02
34.022,2.8387,-0.0034,0.04
34.072,2.843,-0.0034,-0.0
34.122,2.847,-0.0034,-0.0
34.172,2.8532,-0.0034,-0.05
34.222,2.8576,-0.0034,-0.07
34.272,2.8642,-0.0034,-0.11
34.322,2.8687,-0.0034,-0.15
34.372,2.873,-0.0035,-0.2
34.422,2.8796,-0.0035,-0.27
34.472,2.8839,-0.0035,-0.31
34.522,2.8882,-0.0035,-0.27
34.572,2.8945,-0.0036,-0.29
34.622,2.8986,-0.0036,-0.31
34.672,2.9029,-0.0036,-0.2
34.722,2.9091,-0.0036,-0.15
34.772,2.9133,-0.0036,-0.05
34.822,2.9176,-0.0036,0.0
34.872,2.9218,-0.0036,0.07
34.922,2.9282,-0.0036,0.15
34.972,2.9325,-0.0036,0.15
35.022,2.9369,-0.0036,0.2
35.072,2.9434,-0.0036,0.13
35.122,2.9477,-0.0036,0.11
35.172,2.952,-0.0036,0.11
35.222,2.9585,-0.0035,-0.04
35.272,2.9627,-0.0036,-0.09
35.322,2.967,-0.0036,-0.16
35.372,2.9735,-0.0036,-0.16
35.422,2.9777,-0.0036,-0.18
35.472,2.982,-0.0036,-0.22
35.522,2.9885,-0.0036,-0.22
35.572,2.9928,-0.0036,-0.18
35.622,2.9972,-0.0037,-0.16
35.672,3.0035,-0.0037,-0.13
35.722,3.0079,-0.0037,-0.05
35.772,3.0122,-0.0037,-0.05
35.822,3.0184,-0.0037,-0.04
35.872,3.0227,-0.0037,-0.02
35.922,3.0269,-0.0037,-0.04
35.972,3.0332,-0.0037,0.02
36.022,3.0375,-0.0037,0.07
36.072,3.0416,-0.0037,0.04
36.122,3.0479,-0.0037,0.04
36.172,3.0523,-0.0037,0.07
36.222,3.0586,-0.0037,0.09
36.272,3.063,-0.0037,0.02
36.322,3.0673,-0.0037,-0.04
36.372,3.0736,-0.0037,-0.13
36.422,3.0781,-0.0037,-0.18
36.472,3.0824,-0.0037,-0.25
36.522,3.0885,-0.0037,-0.34
36.572,3.0927,-0.0038,-0.34
36.622,3.097,-0.0038,-0.33
36.672,3.1033,-0.0038,-0.25
36.722,3.1075,-0.0038,-0.2
36.772,3.1117,-0.0039,-0.13
36.822,3.1181,-0.0039,-0.09
36.872,3.1224,-0.0039,0.04
36.922,3.1267,-0.0039,0.13
36.972,3.1331,-0.0038,0.13
37.022,3.1374,-0.0038,0.13
37.072,3.1416,-0.0038,0.15
37.122,3.1477,-0.0038,0.11
37.172,3.1519,-0.0038,0.05
37.222,3.1579,-0.0038,0.05
37.272,3.1623,-0.0038,-0.04
37.322,3.1663,-0.0038,-0.02
37.372,3.1727,-0.0038,-0.04
37.422,3.1768,-0.0038,-0.05
37.472,3.1812,-0.0038,-0.11
37.522,3.1875,-0.0038,-0.15
37.572,3.1918,-0.0038,-0.16
37.622,3.1981,-0.0039,-0.2
37.672,3.2023,-0.0039,-0.15
37.722,3.2065,-0.0039,-0.16
37.772,3.2127,-0.0039,-0.15
37.822,3.2167,-0.0039,-0.16
37.872,3.2229,-0.0039,-0.07
37.922,3.227,-0.0039,-0.02
37.972,3.2312,-0.0039,0.02
38.022,3.2372,-0.0039,0.09
38.072,3.2415,-0.0039,0.13
38.122,3.2458,-0.0039,0.11
38.173,3.2524,-0.0039,0.15
38.222,3.2567,-0.0039,0.09
38.272,3.261,-0.0039,0.05
38.322,3.2675,-0.0039,-0.02
38.372,3.2717,-0.0039,-0.07
38.422,3.2759,-0.0039,-0.13
38.472,3.2824,-0.0039,-0.27
38.522,3.2867,-0.0039,-0.29
38.572,3.2929,-0.004,-0.38
38.622,3.2972,-0.004,-0.31
38.672,3.3014,-0.004,-0.33
38.722,3.3057,-0.004,-0.27
38.772,3.3121,-0.0041,-0.25
38.822,3.3164,-0.0041,-0.15
38.872,3.3207,-0.0041,-0.05
38.922,3.3271,-0.0041,-0.04
38.972,3.3314,-0.0041,0.04
39.022,3.3357,-0.0041,0.09
39.072,3.342,-0.0041,0.07
39.122,3.3462,-0.0041,0.04
39.172,3.3504,-0.0041,-0.0
39.222,3.3568,-0.0041,0.04
39.272,3.3611,-0.0041,0.07
39.322,3.3653,-0.0041,0.07
39.372,3.3718,-0.0041,0.05
39.422,3.3763,-0.0041,-0.05
39.472,3.3806,-0.0041,-0.04
39.522,3.3872,-0.0041,-0.05
39.572,3.3915,-0.0041,-0.15
39.622,3.3959,-0.0041,-0.16
39.673,3.4023,-0.0041,-0.24
